#    Var_X        DENSLO     DENSAV     DENSHI    DENSTOT   Radius     Rref   Grav LOGSCALE profwgt
   .00000      6.352E+01  6.479E+01  6.609E+01  6.520E+01  6051.89  6051.89  8.870    0     .000
   1.0000      6.035E+01  6.156E+01  6.279E+01  6.189E+01  6052.89  6051.89  8.867    0     .000
   2.0000      5.730E+01  5.845E+01  5.962E+01  5.871E+01  6053.89  6051.89  8.864    0     .000
   3.0000      5.438E+01  5.547E+01  5.658E+01  5.607E+01  6054.89  6051.89  8.861    0     .000
   4.0000      5.159E+01  5.262E+01  5.367E+01  5.275E+01  6055.89  6051.89  8.858    0     .000
   5.0000      4.889E+01  4.987E+01  5.087E+01  4.987E+01  6056.89  6051.89  8.855    0     .000
   6.0000      4.631E+01  4.724E+01  4.818E+01  4.739E+01  6057.89  6051.89  8.852    0     .000
   7.0000      4.383E+01  4.471E+01  4.560E+01  4.447E+01  6058.89  6051.89  8.849    0     .000
   8.0000      4.143E+01  4.226E+01  4.311E+01  4.216E+01  6059.89  6051.89  8.846    0     .000
   9.0000      3.917E+01  3.995E+01  4.075E+01  3.977E+01  6060.89  6051.89  8.843    0     .000
   10.000      3.698E+01  3.772E+01  3.847E+01  3.781E+01  6061.89  6051.89  8.841    0     .000
   11.000      3.488E+01  3.558E+01  3.629E+01  3.548E+01  6062.89  6051.89  8.838    0     .000
   12.000      3.288E+01  3.354E+01  3.421E+01  3.333E+01  6063.89  6051.89  8.835    0     .000
   13.000      3.098E+01  3.160E+01  3.223E+01  3.134E+01  6064.89  6051.89  8.832    0     .000
   14.000      2.916E+01  2.974E+01  3.033E+01  2.938E+01  6065.89  6051.89  8.829    0     .000
   15.000      2.740E+01  2.795E+01  2.851E+01  2.767E+01  6066.89  6051.89  8.826    0     .000
   16.000      2.575E+01  2.627E+01  2.680E+01  2.603E+01  6067.89  6051.89  8.823    0     .000
   17.000      2.420E+01  2.468E+01  2.517E+01  2.443E+01  6068.89  6051.89  8.820    0     .000
   18.000      2.273E+01  2.318E+01  2.364E+01  2.296E+01  6069.89  6051.89  8.817    0     .000
   19.000      2.131E+01  2.174E+01  2.217E+01  2.160E+01  6070.89  6051.89  8.814    0     .000
   20.000      1.999E+01  2.039E+01  2.080E+01  2.020E+01  6071.89  6051.89  8.811    0     .000
   21.000      1.874E+01  1.911E+01  1.949E+01  1.884E+01  6072.89  6051.89  8.809    0     .000
   22.000      1.753E+01  1.788E+01  1.824E+01  1.759E+01  6073.89  6051.89  8.806    0     .000
   23.000      1.638E+01  1.671E+01  1.704E+01  1.637E+01  6074.89  6051.89  8.803    0     .000
   24.000      1.531E+01  1.562E+01  1.593E+01  1.537E+01  6075.89  6051.89  8.800    0     .000
   25.000      1.428E+01  1.457E+01  1.486E+01  1.434E+01  6076.89  6051.89  8.797    0     .000
   26.000      1.332E+01  1.359E+01  1.386E+01  1.330E+01  6077.89  6051.89  8.794    0     .000
   27.000      1.240E+01  1.265E+01  1.290E+01  1.246E+01  6078.89  6051.89  8.791    0     .000
   28.000      1.154E+01  1.177E+01  1.201E+01  1.160E+01  6079.89  6051.89  8.788    0     .000
   29.000      1.072E+01  1.093E+01  1.115E+01  1.078E+01  6080.89  6051.89  8.785    0     .000
   30.000      9.951E+00  1.015E+01  1.035E+01  1.003E+01  6081.89  6051.89  8.782    0     .000
   31.000      9.222E+00  9.406E+00  9.594E+00  9.282E+00  6082.89  6051.89  8.780    0     .000
   32.000      8.533E+00  8.704E+00  8.878E+00  8.597E+00  6083.89  6051.89  8.777    0     .000
   33.000      7.896E+00  8.053E+00  8.215E+00  7.956E+00  6084.89  6051.89  8.774    0     .000
   34.000      7.288E+00  7.433E+00  7.582E+00  7.313E+00  6085.89  6051.89  8.771    0     .000
   35.000      6.719E+00  6.853E+00  6.990E+00  6.762E+00  6086.89  6051.89  8.768    0     .000
   36.000      6.185E+00  6.309E+00  6.435E+00  6.254E+00  6087.89  6051.89  8.765    0     .000
   37.000      5.686E+00  5.799E+00  5.915E+00  5.729E+00  6088.89  6051.89  8.762    0     .000
   38.000      5.215E+00  5.319E+00  5.425E+00  5.235E+00  6089.89  6051.89  8.759    0     .000
   39.000      4.781E+00  4.877E+00  4.974E+00  4.770E+00  6090.89  6051.89  8.757    0     .000
   40.000      4.372E+00  4.459E+00  4.549E+00  4.367E+00  6091.89  6051.89  8.754    0     .000
   41.000      3.991E+00  4.070E+00  4.152E+00  3.984E+00  6092.89  6051.89  8.751    0     .000
   42.000      3.634E+00  3.706E+00  3.781E+00  3.636E+00  6093.89  6051.89  8.748    0     .000
   43.000      3.300E+00  3.366E+00  3.434E+00  3.299E+00  6094.89  6051.89  8.745    0     .000
   44.000      2.995E+00  3.055E+00  3.116E+00  3.030E+00  6095.89  6051.89  8.742    0     .000
   45.000      2.712E+00  2.766E+00  2.821E+00  2.755E+00  6096.89  6051.89  8.739    0     .000
   46.000      2.450E+00  2.499E+00  2.549E+00  2.462E+00  6097.89  6051.89  8.736    0     .000
   47.000      2.204E+00  2.248E+00  2.293E+00  2.214E+00  6098.89  6051.89  8.734    0     .000
   48.000      1.977E+00  2.017E+00  2.057E+00  1.982E+00  6099.89  6051.89  8.731    0     .000
   49.000      1.768E+00  1.803E+00  1.839E+00  1.785E+00  6100.89  6051.89  8.728    0     .000
   50.000      1.581E+00  1.613E+00  1.645E+00  1.595E+00  6101.89  6051.89  8.725    0     .000
   51.000      1.408E+00  1.438E+00  1.468E+00  1.429E+00  6102.89  6051.89  8.722    0     .000
   52.000      1.247E+00  1.275E+00  1.304E+00  1.271E+00  6103.89  6051.89  8.719    0     .000
   53.000      1.108E+00  1.134E+00  1.161E+00  1.135E+00  6104.89  6051.89  8.716    0     .000
   54.000      9.797E-01  1.004E+00  1.030E+00  1.006E+00  6105.89  6051.89  8.714    0     .000
   55.000      8.627E-01  8.855E-01  9.090E-01  8.909E-01  6106.89  6051.89  8.711    0     .000
   56.000      7.578E-01  7.788E-01  8.005E-01  7.931E-01  6107.89  6051.89  8.708    0     .000
   57.000      6.615E-01  6.808E-01  7.006E-01  6.985E-01  6108.89  6051.89  8.705    0     .000
   58.000      5.702E-01  5.875E-01  6.054E-01  6.057E-01  6109.89  6051.89  8.702    0     .000
   59.000      4.793E-01  4.945E-01  5.102E-01  5.202E-01  6110.89  6051.89  8.699    0     .000
   60.000      3.967E-01  4.098E-01  4.233E-01  4.266E-01  6111.89  6051.89  8.696    0     .000
   61.000      3.277E-01  3.390E-01  3.506E-01  3.487E-01  6112.89  6051.89  8.694    0     .000
   62.000      2.708E-01  2.804E-01  2.904E-01  2.883E-01  6113.89  6051.89  8.691    0     .000
   63.000      2.240E-01  2.323E-01  2.408E-01  2.354E-01  6114.89  6051.89  8.688    0     .000
   64.000      1.853E-01  1.924E-01  1.997E-01  1.965E-01  6115.89  6051.89  8.685    0     .000
   65.000      1.530E-01  1.590E-01  1.653E-01  1.651E-01  6116.89  6051.89  8.682    0     .000
   66.000      1.263E-01  1.314E-01  1.368E-01  1.376E-01  6117.89  6051.89  8.679    0     .000
   67.000      1.039E-01  1.083E-01  1.128E-01  1.108E-01  6118.89  6051.89  8.677    0     .000
   68.000      8.549E-02  8.920E-02  9.307E-02  8.910E-02  6119.89  6051.89  8.674    0     .000
   69.000      7.078E-02  7.394E-02  7.725E-02  7.407E-02  6120.89  6051.89  8.671    0     .000
   70.000      5.859E-02  6.129E-02  6.411E-02  6.338E-02  6121.89  6051.89  8.668    0     .000
   71.000      4.871E-02  5.102E-02  5.343E-02  5.272E-02  6122.89  6051.89  8.665    0     .000
   72.000      4.050E-02  4.246E-02  4.453E-02  4.270E-02  6123.89  6051.89  8.662    0     .000
   73.000      3.368E-02  3.537E-02  3.713E-02  3.398E-02  6124.89  6051.89  8.660    0     .000
   74.000      2.802E-02  2.945E-02  3.096E-02  2.777E-02  6125.89  6051.89  8.657    0     .000
   75.000      2.340E-02  2.463E-02  2.592E-02  2.228E-02  6126.89  6051.89  8.654    0     .000
   76.000      1.954E-02  2.059E-02  2.170E-02  1.919E-02  6127.89  6051.89  8.651    0     .000
   77.000      1.640E-02  1.730E-02  1.825E-02  1.575E-02  6128.89  6051.89  8.648    0     .000
   78.000      1.376E-02  1.454E-02  1.536E-02  1.303E-02  6129.89  6051.89  8.645    0     .000
   79.000      1.145E-02  1.211E-02  1.281E-02  1.097E-02  6130.89  6051.89  8.643    0     .000
   80.000      9.528E-03  1.009E-02  1.069E-02  8.949E-03  6131.89  6051.89  8.640    0     .000
   81.000      7.833E-03  8.305E-03  8.806E-03  7.602E-03  6132.89  6051.89  8.637    0     .000
   82.000      6.443E-03  6.840E-03  7.261E-03  6.473E-03  6133.89  6051.89  8.634    0     .000
   83.000      5.252E-03  5.582E-03  5.933E-03  5.347E-03  6134.89  6051.89  8.631    0     .000
   84.000      4.283E-03  4.558E-03  4.850E-03  4.297E-03  6135.89  6051.89  8.629    0     .000
   85.000      3.457E-03  3.683E-03  3.924E-03  3.479E-03  6136.89  6051.89  8.626    0     .000
   86.000      2.791E-03  2.978E-03  3.177E-03  2.745E-03  6137.89  6051.89  8.623    0     .000
   87.000      2.221E-03  2.373E-03  2.534E-03  2.271E-03  6138.89  6051.89  8.620    0     .000
   88.000      1.768E-03  1.891E-03  2.022E-03  1.816E-03  6139.89  6051.89  8.617    0     .000
   89.000      1.397E-03  1.495E-03  1.601E-03  1.501E-03  6140.89  6051.89  8.615    0     .000
   90.000      1.103E-03  1.183E-03  1.268E-03  1.193E-03  6141.89  6051.89  8.612    0     .000
   91.000      8.643E-04  9.277E-04  9.957E-04  9.591E-04  6142.89  6051.89  8.609    0     .000
   92.000      6.771E-04  7.276E-04  7.819E-04  7.213E-04  6143.89  6051.89  8.606    0     .000
   93.000      5.281E-04  5.682E-04  6.113E-04  5.804E-04  6144.89  6051.89  8.603    0     .000
   94.000      4.119E-04  4.437E-04  4.780E-04  4.436E-04  6145.89  6051.89  8.601    0     .000
   95.000      3.193E-04  3.444E-04  3.714E-04  3.591E-04  6146.89  6051.89  8.598    0     .000
   96.000      2.475E-04  2.673E-04  2.886E-04  2.722E-04  6147.89  6051.89  8.595    0     .000
   97.000      1.909E-04  2.064E-04  2.231E-04  2.138E-04  6148.89  6051.89  8.592    0     .000
   98.000      1.472E-04  1.594E-04  1.725E-04  1.666E-04  6149.89  6051.89  8.589    0     .000
   99.000      1.087E-04  1.178E-04  1.276E-04  1.199E-04  6150.89  6051.89  8.587    0     .000
   100.00      8.022E-05  8.704E-05  9.444E-05  8.975E-05  6151.89  6051.89  8.584    0     .000
   101.00      6.095E-05  6.621E-05  7.193E-05  6.691E-05  6152.89  6051.89  8.581    0     .000
   102.00      4.632E-05  5.037E-05  5.478E-05  5.020E-05  6153.89  6051.89  8.578    0     .000
   103.00      3.520E-05  3.832E-05  4.173E-05  3.766E-05  6154.89  6051.89  8.575    0     .000
   104.00      2.675E-05  2.916E-05  3.179E-05  2.883E-05  6155.89  6051.89  8.573    0     .000
   105.00      2.033E-05  2.219E-05  2.422E-05  2.280E-05  6156.89  6051.89  8.570    0     .000
   106.00      1.542E-05  1.685E-05  1.842E-05  1.761E-05  6157.89  6051.89  8.567    0     .000
   107.00      1.170E-05  1.281E-05  1.401E-05  1.272E-05  6158.89  6051.89  8.564    0     .000
   108.00      8.884E-06  9.731E-06  1.066E-05  9.597E-06  6159.89  6051.89  8.561    0     .000
   109.00      6.744E-06  7.396E-06  8.112E-06  7.132E-06  6160.89  6051.89  8.559    0     .000
   110.00      5.121E-06  5.623E-06  6.174E-06  5.310E-06  6161.89  6051.89  8.556    0     .000
   111.00      3.784E-06  4.160E-06  4.573E-06  4.023E-06  6162.89  6051.89  8.553    0     .000
   112.00      2.796E-06  3.077E-06  3.387E-06  2.956E-06  6163.89  6051.89  8.550    0     .000
   113.00      2.066E-06  2.276E-06  2.508E-06  2.042E-06  6164.89  6051.89  8.548    0     .000
   114.00      1.526E-06  1.684E-06  1.858E-06  1.548E-06  6165.89  6051.89  8.545    0     .000
   115.00      1.128E-06  1.246E-06  1.376E-06  1.158E-06  6166.89  6051.89  8.542    0     .000
   116.00      8.254E-07  9.127E-07  1.009E-06  8.824E-07  6167.89  6051.89  8.539    0     .000
   117.00      6.040E-07  6.687E-07  7.403E-07  6.333E-07  6168.89  6051.89  8.537    0     .000
   118.00      4.420E-07  4.899E-07  5.430E-07  4.602E-07  6169.89  6051.89  8.534    0     .000
   119.00      3.235E-07  3.590E-07  3.983E-07  3.524E-07  6170.89  6051.89  8.531    0     .000
   120.00      2.367E-07  2.630E-07  2.922E-07  2.616E-07  6171.89  6051.89  8.528    0     .000
   121.00      1.734E-07  1.928E-07  2.145E-07  1.977E-07  6172.89  6051.89  8.525    0     .000
   122.00      1.270E-07  1.414E-07  1.574E-07  1.417E-07  6173.89  6051.89  8.523    0     .000
   123.00      9.298E-08  1.037E-07  1.156E-07  1.045E-07  6174.89  6051.89  8.520    0     .000
   124.00      6.810E-08  7.601E-08  8.485E-08  8.159E-08  6175.89  6051.89  8.517    0     .000
   125.00      4.988E-08  5.574E-08  6.229E-08  6.288E-08  6176.89  6051.89  8.514    0     .000
   126.00      3.675E-08  4.111E-08  4.600E-08  4.535E-08  6177.89  6051.89  8.512    0     .000
   127.00      2.707E-08  3.033E-08  3.397E-08  3.147E-08  6178.89  6051.89  8.509    0     .000
   128.00      1.995E-08  2.237E-08  2.509E-08  2.503E-08  6179.89  6051.89  8.506    0     .000
   129.00      1.470E-08  1.651E-08  1.853E-08  1.808E-08  6180.89  6051.89  8.503    0     .000
   130.00      1.083E-08  1.218E-08  1.369E-08  1.400E-08  6181.89  6051.89  8.501    0     .000
   131.00      8.075E-09  9.087E-09  1.023E-08  1.119E-08  6182.89  6051.89  8.498    0     .000
   132.00      6.021E-09  6.783E-09  7.642E-09  8.613E-09  6183.89  6051.89  8.495    0     .000
   133.00      4.490E-09  5.065E-09  5.712E-09  6.255E-09  6184.89  6051.89  8.492    0     .000
   134.00      3.350E-09  3.783E-09  4.272E-09  4.547E-09  6185.89  6051.89  8.490    0     .000
   135.00      2.500E-09  2.826E-09  3.195E-09  3.413E-09  6186.89  6051.89  8.487    0     .000
   136.00      1.905E-09  2.156E-09  2.440E-09  2.627E-09  6187.89  6051.89  8.484    0     .000
   137.00      1.453E-09  1.646E-09  1.865E-09  2.131E-09  6188.89  6051.89  8.481    0     .000
   138.00      1.109E-09  1.258E-09  1.427E-09  1.593E-09  6189.89  6051.89  8.479    0     .000
   139.00      8.475E-10  9.625E-10  1.093E-09  1.279E-09  6190.89  6051.89  8.476    0     .000
   140.00      6.481E-10  7.369E-10  8.379E-10  9.655E-10  6191.89  6051.89  8.473    0     .000
   141.00      5.117E-10  5.825E-10  6.630E-10  7.809E-10  6192.89  6051.89  8.470    0     .000
   142.00      4.046E-10  4.611E-10  5.255E-10  5.607E-10  6193.89  6051.89  8.468    0     .000
   143.00      3.204E-10  3.655E-10  4.171E-10  4.356E-10  6194.89  6051.89  8.465    0     .000
   144.00      2.540E-10  2.902E-10  3.314E-10  3.342E-10  6195.89  6051.89  8.462    0     .000
   145.00      2.017E-10  2.306E-10  2.637E-10  2.678E-10  6196.89  6051.89  8.460    0     .000
   146.00      1.689E-10  1.934E-10  2.214E-10  2.269E-10  6197.89  6051.89  8.457    0     .000
   147.00      1.416E-10  1.622E-10  1.860E-10  1.764E-10  6198.89  6051.89  8.454    0     .000
   148.00      1.187E-10  1.362E-10  1.563E-10  1.515E-10  6199.89  6051.89  8.451    0     .000
   149.00      9.964E-11  1.145E-10  1.315E-10  1.166E-10  6200.89  6051.89  8.449    0     .000
   150.00      8.367E-11  9.623E-11  1.107E-10  9.770E-11  6201.89  6051.89  8.446    0     .000
   .00000      6.352E+01  6.479E+01  6.609E+01  6.651E+01  6051.89  6051.89  8.870    0     .000
   1.0000      6.035E+01  6.156E+01  6.279E+01  6.306E+01  6052.89  6051.89  8.867    0     .000
   2.0000      5.730E+01  5.845E+01  5.962E+01  5.969E+01  6053.89  6051.89  8.864    0     .000
   3.0000      5.438E+01  5.547E+01  5.658E+01  5.679E+01  6054.89  6051.89  8.861    0     .000
   4.0000      5.159E+01  5.262E+01  5.367E+01  5.360E+01  6055.89  6051.89  8.858    0     .000
   5.0000      4.889E+01  4.987E+01  5.087E+01  5.110E+01  6056.89  6051.89  8.855    0     .000
   6.0000      4.631E+01  4.724E+01  4.818E+01  4.811E+01  6057.89  6051.89  8.852    0     .000
   7.0000      4.383E+01  4.471E+01  4.560E+01  4.517E+01  6058.89  6051.89  8.849    0     .000
   8.0000      4.143E+01  4.226E+01  4.311E+01  4.304E+01  6059.89  6051.89  8.846    0     .000
   9.0000      3.917E+01  3.995E+01  4.075E+01  4.054E+01  6060.89  6051.89  8.843    0     .000
   10.000      3.698E+01  3.772E+01  3.847E+01  3.795E+01  6061.89  6051.89  8.841    0     .000
   11.000      3.488E+01  3.558E+01  3.629E+01  3.628E+01  6062.89  6051.89  8.838    0     .000
   12.000      3.288E+01  3.354E+01  3.421E+01  3.416E+01  6063.89  6051.89  8.835    0     .000
   13.000      3.098E+01  3.160E+01  3.223E+01  3.225E+01  6064.89  6051.89  8.832    0     .000
   14.000      2.916E+01  2.974E+01  3.033E+01  3.031E+01  6065.89  6051.89  8.829    0     .000
   15.000      2.740E+01  2.795E+01  2.851E+01  2.832E+01  6066.89  6051.89  8.826    0     .000
   16.000      2.575E+01  2.627E+01  2.680E+01  2.664E+01  6067.89  6051.89  8.823    0     .000
   17.000      2.420E+01  2.468E+01  2.517E+01  2.480E+01  6068.89  6051.89  8.820    0     .000
   18.000      2.273E+01  2.318E+01  2.364E+01  2.351E+01  6069.89  6051.89  8.817    0     .000
   19.000      2.131E+01  2.174E+01  2.217E+01  2.223E+01  6070.89  6051.89  8.814    0     .000
   20.000      1.999E+01  2.039E+01  2.080E+01  2.113E+01  6071.89  6051.89  8.811    0     .000
   21.000      1.874E+01  1.911E+01  1.949E+01  1.970E+01  6072.89  6051.89  8.809    0     .000
   22.000      1.753E+01  1.788E+01  1.824E+01  1.855E+01  6073.89  6051.89  8.806    0     .000
   23.000      1.638E+01  1.671E+01  1.704E+01  1.716E+01  6074.89  6051.89  8.803    0     .000
   24.000      1.531E+01  1.562E+01  1.593E+01  1.601E+01  6075.89  6051.89  8.800    0     .000
   25.000      1.428E+01  1.457E+01  1.486E+01  1.495E+01  6076.89  6051.89  8.797    0     .000
   26.000      1.332E+01  1.359E+01  1.386E+01  1.398E+01  6077.89  6051.89  8.794    0     .000
   27.000      1.240E+01  1.265E+01  1.290E+01  1.310E+01  6078.89  6051.89  8.791    0     .000
   28.000      1.154E+01  1.177E+01  1.201E+01  1.209E+01  6079.89  6051.89  8.788    0     .000
   29.000      1.072E+01  1.093E+01  1.115E+01  1.112E+01  6080.89  6051.89  8.785    0     .000
   30.000      9.951E+00  1.015E+01  1.035E+01  1.036E+01  6081.89  6051.89  8.782    0     .000
   31.000      9.222E+00  9.406E+00  9.594E+00  9.568E+00  6082.89  6051.89  8.780    0     .000
   32.000      8.533E+00  8.704E+00  8.878E+00  8.851E+00  6083.89  6051.89  8.777    0     .000
   33.000      7.896E+00  8.053E+00  8.215E+00  8.240E+00  6084.89  6051.89  8.774    0     .000
   34.000      7.288E+00  7.433E+00  7.582E+00  7.635E+00  6085.89  6051.89  8.771    0     .000
   35.000      6.719E+00  6.853E+00  6.990E+00  7.041E+00  6086.89  6051.89  8.768    0     .000
   36.000      6.185E+00  6.309E+00  6.435E+00  6.446E+00  6087.89  6051.89  8.765    0     .000
   37.000      5.686E+00  5.799E+00  5.915E+00  5.890E+00  6088.89  6051.89  8.762    0     .000
   38.000      5.215E+00  5.319E+00  5.425E+00  5.419E+00  6089.89  6051.89  8.759    0     .000
   39.000      4.781E+00  4.877E+00  4.974E+00  4.958E+00  6090.89  6051.89  8.757    0     .000
   40.000      4.372E+00  4.459E+00  4.549E+00  4.498E+00  6091.89  6051.89  8.754    0     .000
   41.000      3.991E+00  4.070E+00  4.152E+00  4.053E+00  6092.89  6051.89  8.751    0     .000
   42.000      3.634E+00  3.706E+00  3.781E+00  3.699E+00  6093.89  6051.89  8.748    0     .000
   43.000      3.300E+00  3.366E+00  3.434E+00  3.378E+00  6094.89  6051.89  8.745    0     .000
   44.000      2.995E+00  3.055E+00  3.116E+00  3.044E+00  6095.89  6051.89  8.742    0     .000
   45.000      2.712E+00  2.766E+00  2.821E+00  2.747E+00  6096.89  6051.89  8.739    0     .000
   46.000      2.450E+00  2.499E+00  2.549E+00  2.512E+00  6097.89  6051.89  8.736    0     .000
   47.000      2.204E+00  2.248E+00  2.293E+00  2.282E+00  6098.89  6051.89  8.734    0     .000
   48.000      1.977E+00  2.017E+00  2.057E+00  2.041E+00  6099.89  6051.89  8.731    0     .000
   49.000      1.768E+00  1.803E+00  1.839E+00  1.827E+00  6100.89  6051.89  8.728    0     .000
   50.000      1.581E+00  1.613E+00  1.645E+00  1.634E+00  6101.89  6051.89  8.725    0     .000
   51.000      1.408E+00  1.438E+00  1.468E+00  1.450E+00  6102.89  6051.89  8.722    0     .000
