#Z(m)	Temp(K)	Pres (Nm2)	rho(kgm3)	a (m/s)
0		735.30	9.209E+06	6.479E+01	428.03
1000	727.70	8.645E+06	6.156E+01	425.46
2000	720.20	8.109E+06	5.845E+01	422.88
3000	712.40	7.601E+06	5.547E+01	420.27
4000	704.60	7.120E+06	5.262E+01	417.63
5000	696.80	6.666E+06	4.987E+01	415.09
6000	688.80	6.234E+06	4.724E+01	412.43
7000	681.10	5.829E+06	4.471E+01	409.94
8000	673.60	5.443E+06	4.226E+01	407.46
9000	665.80	5.081E+06	3.995E+01	404.90
10000	658.20	4.739E+06	3.772E+01	402.42
11000	650.60	4.416E+06	3.558E+01	399.98
12000	643.20	4.112E+06	3.354E+01	397.53
13000	635.50	3.826E+06	3.160E+01	395.05
14000	628.10	3.557E+06	2.974E+01	392.64
15000	620.80	3.303E+06	2.795E+01	390.29
16000	613.30	3.066E+06	2.627E+01	387.87
17000	605.20	2.842E+06	2.468E+01	385.27
18000	597.10	2.633E+06	2.318E+01	382.64
19000	589.30	2.437E+06	2.174E+01	380.12
20000	580.70	2.252E+06	2.039E+01	377.31
21000	572.40	2.080E+06	1.911E+01	374.57
22000	564.30	1.918E+06	1.788E+01	371.85
23000	556.00	1.766E+06	1.671E+01	369.09
24000	547.50	1.625E+06	1.562E+01	366.20
25000	539.20	1.493E+06	1.457E+01	363.43
26000	530.70	1.370E+06	1.359E+01	360.48
27000	522.30	1.255E+06	1.265E+01	357.60
28000	513.80	1.149E+06	1.177E+01	354.73
29000	505.60	1.050E+06	1.093E+01	351.89
30000	496.90	9.585E+05	1.015E+01	348.89
31000	488.30	8.729E+05	9.406E+00	345.86
32000	479.90	7.940E+05	8.704E+00	342.91
33000	471.70	7.210E+05	8.041E+00	339.97
34000	463.40	6.537E+05	7.420E+00	336.99
35000	455.50	5.917E+05	6.831E+00	334.15
36000	448.00	5.346E+05	6.274E+00	331.41
37000	439.90	4.822E+05	5.762E+00	328.44
38000	432.50	4.342E+05	5.276E+00	325.70
39000	425.10	3.902E+05	4.823E+00	322.93
40000	417.60	3.501E+05	4.404E+00	320.11
41000	410.00	3.135E+05	4.015E+00	317.25
42000	403.50	2.802E+05	3.646E+00	314.74
43000	397.10	2.499E+05	3.303E+00	312.29
44000	391.20	2.225E+05	2.985E+00	309.97
45000	385.40	1.979E+05	2.693E+00	307.77
46000	379.70	1.756E+05	2.426E+00	305.45
47000	373.10	1.555E+05	2.186E+00	302.81
48000	366.40	1.375E+05	1.967E+00	300.18
49000	358.60	1.213E+05	1.773E+00	296.96
50000	350.50	1.066E+05	1.594E+00	293.60
51000	342.00	9.347E+04	1.432E+00	290.06
52000	333.30	8.168E+04	1.284E+00	286.35
53000	323.00	7.109E+04	1.153E+00	281.91
54000	312.80	6.163E+04	1.032E+00	277.45
55000	302.30	5.314E+04	9.207E-01	272.76
56000	291.80	4.559E+04	8.183E-01	267.98
57000	282.50	3.891E+04	7.212E-01	263.71
58000	275.20	3.306E+04	6.289E-01	260.31
59000	268.70	2.797E+04	5.448E-01	257.25
60000	262.80	2.357E+04	4.694E-01	254.41
61000	258.60	1.977E+04	4.001E-01	252.37
62000	254.50	1.659E+04	3.411E-01	250.39
63000	251.00	1.385E+04	2.886E-01	248.72
64000	247.50	1.156E+04	2.443E-01	246.97
65000	244.30	9.599E+03	2.055E-01	245.38
66000	241.00	7.970E+03	1.729E-01	243.76
67000	238.20	6.590E+03	1.446E-01	242.37
68000	235.40	5.448E+03	1.210E-01	240.91
69000	232.60	4.484E+03	1.008E-01	239.46
70000	229.80	3.690E+03	8.393E-02	238.06
71000	226.90	3.023E+03	6.961E-02	236.60
72000	224.10	2.476E+03	5.775E-02	235.09
73000	221.30	2.018E+03	4.765E-02	233.64
74000	218.60	1.645E+03	3.933E-02	232.19
75000	215.30	1.333E+03	3.236E-02	230.43
76000	212.10	1.081E+03	2.663E-02	228.75
77000	208.70	8.705E+02	2.179E-02	226.92
78000	205.30	7.010E+02	1.784E-02	225.05
79000	201.20	5.600E+02	1.454E-02	222.81
80000	197.10	4.474E+02	1.186E-02	220.51
81000	193.50	3.544E+02	9.570E-03	218.48
82000	189.90	2.808E+02	7.725E-03	216.46
83000	186.90	2.206E+02	6.168E-03	214.71
84000	183.80	1.733E+02	4.926E-03	212.95
85000	181.00	1.351E+02	3.900E-03	211.31
86000	178.20	1.054E+02	3.088E-03	209.75
87000	175.90	8.154E+01	2.421E-03	208.36
88000	173.60	6.311E+01	1.898E-03	207.03
89000	171.50	4.855E+01	1.478E-03	205.77
90000	169.40	3.735E+01	1.151E-03	204.52
91000	168.30	2.861E+01	8.870E-04	203.90
92000	167.20	2.191E+01	6.836E-04	203.26
93000	167.20	1.675E+01	5.226E-04	203.26
94000	167.20	1.281E+01	3.995E-04	203.30
95000	168.20	9.812E+00	3.040E-04	203.97
96000	169.20	7.515E+00	2.314E-04	204.60
97000	170.60	5.783E+00	1.765E-04	205.51
98000	172.00	4.450E+00	1.347E-04	206.36
99000	172.60	3.435E+00	1.036E-04	206.73
100000	173.30	2.652E+00	7.972E-05	207.08
101000	170.70	2.021E+00	6.169E-05	205.50
102000	168.20	1.541E+00	4.775E-05	203.96
103000	165.60	1.175E+00	3.696E-05	202.43
104000	163.10	8.958E-01	2.862E-05	200.86
105000	160.50	6.829E-01	2.217E-05	199.26
106000	157.90	5.100E-01	1.681E-05	197.76
107000	155.30	3.809E-01	1.276E-05	196.16
108000	152.70	2.844E-01	9.680E-06	194.60
109000	150.10	2.124E-01	7.348E-06	193.03
110000	147.50	1.586E-01	5.580E-06	191.41
111000	146.70	1.163E-01	4.109E-06	191.01
112000	145.80	8.534E-02	3.026E-06	190.66
113000	144.90	6.259E-02	2.229E-06	190.25
114000	144.00	4.591E-02	1.642E-06	189.84
115000	143.20	3.368E-02	1.209E-06	189.50
116000	143.20	2.464E-02	8.809E-07	189.88
117000	143.20	1.803E-02	6.417E-07	190.31
118000	143.20	1.319E-02	4.675E-07	190.70
119000	143.30	9.651E-03	3.406E-07	191.11
120000	143.30	7.061E-03	2.481E-07	191.53
121000	143.60	5.184E-03	1.807E-07	192.30
122000	143.80	3.806E-03	1.316E-07	193.08
123000	144.10	2.794E-03	9.590E-08	193.79
124000	144.40	2.051E-03	6.987E-08	194.52
125000	144.70	1.506E-03	5.090E-08	195.29
126000	145.00	1.116E-03	3.728E-08	196.44
127000	145.30	8.274E-04	2.730E-08	197.65
128000	145.60	6.133E-04	2.000E-08	198.81
129000	146.00	4.546E-04	1.465E-08	200.00
130000	146.30	3.370E-04	1.073E-08	201.21
131000	146.70	2.553E-04	7.953E-09	203.42
132000	147.10	1.935E-04	5.895E-09	205.70
133000	147.50	1.466E-04	4.372E-09	207.90
134000	147.90	1.111E-04	3.243E-09	210.14
135000	148.30	8.417E-05	2.407E-09	212.31
136000	148.80	6.622E-05	1.825E-09	216.27
137000	149.30	5.211E-05	1.386E-09	220.14
138000	149.70	4.100E-05	1.053E-09	224.03
139000	150.20	3.226E-05	8.013E-10	227.80
140000	150.70	2.538E-05	6.102E-10	231.55
141000	151.20	2.092E-05	4.807E-10	236.85
142000	151.70	1.724E-05	3.793E-10	242.05
143000	152.20	1.421E-05	2.998E-10	247.18
144000	152.70	1.171E-05	2.373E-10	252.21
145000	153.30	9.651E-06	1.881E-10	257.17
146000	151.90	7.927E-06	1.479E-10	262.84
147000	150.50	6.510E-06	1.166E-10	268.27
148000	149.20	5.347E-06	9.212E-11	273.53
149000	147.80	4.392E-06	7.297E-11	278.54
150000	146.40	3.607E-06	5.791E-11	283.35
151000	144.70	3.079E-06	4.750E-11	289.06
152000	142.90	2.628E-06	3.906E-11	294.49
153000	141.20	2.243E-06	3.220E-11	299.65
154000	139.50	1.915E-06	2.661E-11	304.57
155000	137.70	1.634E-06	2.203E-11	309.20
156000	137.80	1.469E-06	1.919E-11	314.12
157000	137.90	1.320E-06	1.673E-11	318.91
158000	138.00	1.186E-06	1.460E-11	323.59
159000	138.20	1.066E-06	1.275E-11	328.28
160000	138.30	9.578E-07	1.114E-11	332.91
161000	138.30	8.753E-07	9.838E-12	338.65
162000	138.40	7.998E-07	8.695E-12	344.34
163000	138.40	7.308E-07	7.693E-12	349.93
164000	138.50	6.678E-07	6.813E-12	355.45
165000	138.50	6.103E-07	6.039E-12	360.92
166000	138.60	5.654E-07	5.375E-12	368.23
167000	138.60	5.239E-07	4.790E-12	375.48
168000	138.70	4.854E-07	4.276E-12	382.52
169000	138.70	4.498E-07	3.822E-12	389.49
170000	138.80	4.167E-07	3.420E-12	396.30
171000	138.80	3.916E-07	3.068E-12	405.62
172000	138.90	3.679E-07	2.758E-12	414.66
173000	138.90	3.457E-07	2.484E-12	423.55
174000	138.90	3.249E-07	2.241E-12	432.30
175000	139.00	3.052E-07	2.024E-12	440.87
176000	139.00	2.906E-07	1.834E-12	451.93
177000	139.00	2.767E-07	1.666E-12	462.69
178000	139.00	2.635E-07	1.516E-12	473.33
179000	139.10	2.509E-07	1.382E-12	483.75
180000	139.10	2.389E-07	1.263E-12	493.78
181000	139.10	2.294E-07	1.155E-12	505.98
182000	139.10	2.203E-07	1.058E-12	518.07
183000	139.10	2.116E-07	9.717E-13	529.81
184000	139.10	2.032E-07	8.940E-13	541.28
185000	139.20	1.951E-07	8.240E-13	552.45
186000	139.20	1.890E-07	7.629E-13	565.10
187000	139.20	1.831E-07	7.077E-13	577.49
188000	139.20	1.774E-07	6.577E-13	589.64
189000	139.20	1.719E-07	6.123E-13	601.56
190000	139.20	1.665E-07	5.708E-13	613.19
191000	139.20	1.622E-07	5.348E-13	625.25
192000	139.20	1.580E-07	5.018E-13	637.07
193000	139.20	1.540E-07	4.715E-13	648.85
194000	139.20	1.500E-07	4.435E-13	660.28
195000	139.30	1.461E-07	4.177E-13	671.46
196000	139.30	1.429E-07	3.960E-13	682.02
197000	139.30	1.398E-07	3.758E-13	692.47
198000	139.30	1.368E-07	3.569E-13	702.90
199000	139.30	1.339E-07	3.392E-13	713.33
200000	139.30	1.310E-07	3.227E-13	723.37
201000	139.30	1.284E-07	3.086E-13	732.34
202000	139.30	1.259E-07	2.952E-13	741.45
203000	139.30	1.234E-07	2.826E-13	750.24
204000	139.30	1.210E-07	2.707E-13	759.06
205000	139.30	1.187E-07	2.594E-13	768.01
206000	139.30	1.167E-07	2.501E-13	775.54
207000	139.30	1.147E-07	2.413E-13	782.76
208000	139.30	1.128E-07	2.328E-13	790.30
209000	139.30	1.109E-07	2.248E-13	797.43
210000	139.30	1.091E-07	2.170E-13	805.02
211000	139.30	1.073E-07	2.102E-13	811.17
212000	139.30	1.056E-07	2.036E-13	817.65
213000	139.30	1.039E-07	1.972E-13	824.10
214000	139.30	1.022E-07	1.911E-13	830.27
215000	139.30	1.005E-07	1.852E-13	836.35
216000	139.30	9.904E-08	1.802E-13	841.69
217000	139.30	9.758E-08	1.754E-13	846.82
218000	139.30	9.615E-08	1.707E-13	852.09
219000	139.30	9.473E-08	1.662E-13	857.15
220000	139.30	9.334E-08	1.618E-13	862.33
221000	139.30	9.204E-08	1.578E-13	867.08
222000	139.30	9.076E-08	1.540E-13	871.59
223000	139.30	8.949E-08	1.502E-13	876.35
224000	139.30	8.825E-08	1.466E-13	880.88
225000	139.30	8.702E-08	1.431E-13	885.35
226000	139.30	8.590E-08	1.399E-13	889.64
227000	139.30	8.479E-08	1.368E-13	893.83
228000	139.30	8.369E-08	1.338E-13	897.91
229000	139.30	8.261E-08	1.309E-13	901.93
230000	139.30	8.154E-08	1.281E-13	905.81
231000	139.30	8.056E-08	1.255E-13	909.63
232000	139.30	7.959E-08	1.230E-13	913.28
233000	139.30	7.864E-08	1.206E-13	916.80
234000	139.30	7.769E-08	1.182E-13	920.45
235000	139.30	7.676E-08	1.158E-13	924.36
236000	139.30	7.580E-08	1.135E-13	927.82
237000	139.30	7.485E-08	1.112E-13	931.47
238000	139.30	7.391E-08	1.090E-13	934.90
239000	139.30	7.298E-08	1.068E-13	938.52
240000	139.30	7.206E-08	1.047E-13	941.89
241000	139.30	7.122E-08	1.027E-13	945.46
242000	139.30	7.039E-08	1.008E-13	948.75
243000	139.30	6.956E-08	9.893E-14	952.01
244000	139.30	6.875E-08	9.710E-14	955.33
245000	139.30	6.794E-08	9.531E-14	958.56
246000	139.30	6.717E-08	9.359E-14	961.83
247000	139.30	6.641E-08	9.191E-14	965.08
248000	139.30	6.565E-08	9.027E-14	968.22
249000	139.30	6.490E-08	8.866E-14	971.37
250000	139.30	6.417E-08	8.708E-14	974.62
